Date,Time,Open,High,Low,Close,Volume
2017-01-03,1483401600,69.55,69.55,67.76,68.39,336300
2017-01-04,1483488000,68.3,69.98,68.3,69.52,418800
2017-01-05,1483574400,69.04,69.69,68.59,68.81,356400
2017-01-06,1483660800,68.87,69.28,68.44,68.84,282800
2017-01-09,1483920000,68.84,69.69,68.45,69.01,374100
2017-01-10,1484006400,68.68,68.92,68.18,68.2,161500
2017-01-11,1484092800,68.4,68.71,68.16,68.41,193100
2017-01-12,1484179200,68.51,69.08,67.77,68.68,184300
2017-01-13,1484265600,68.66,69.14,68.4,68.84,188900
2017-01-17,1484611200,68.26,69.15,68.24,68.69,270200
2017-01-18,1484697600,68.76,69.12,68.39,68.82,261000
2017-01-19,1484784000,68.97,69.02,67.86,68.12,374700
2017-01-20,1484870400,67.78,67.91,67.01,67.1,347300
2017-01-23,1485129600,67.32,67.93,66.91,67.86,384600
2017-01-24,1485216000,68.17,69.17,68.17,68.88,266000
2017-01-25,1485302400,68.71,69.25,68.5,68.77,267000
2017-01-26,1485388800,68.74,69.01,67.86,68.67,275500
2017-01-27,1485475200,68.74,68.83,68.29,68.78,320400
2017-01-30,1485734400,68.74,69.08,67.82,68.42,342000
2017-01-31,1485820800,68.55,68.96,68.0,68.64,669400
2017-02-01,1485907200,68.94,69.66,68.72,69.55,446900
2017-02-02,1485993600,69.42,69.42,68.68,68.98,325700
2017-02-03,1486080000,69.39,69.73,69.14,69.4,278200
2017-02-06,1486339200,69.17,69.63,68.78,69.0,254500
2017-02-07,1486425600,68.99,69.11,68.34,68.42,360800
2017-02-08,1486512000,68.31,69.33,68.14,69.19,397300
2017-02-09,1486598400,69.02,69.55,68.82,69.21,438000
2017-02-10,1486684800,69.81,71.68,69.81,70.35,1160100
2017-02-13,1486944000,70.76,70.96,69.95,70.01,440000
2017-02-14,1487030400,69.99,69.99,69.35,69.45,432000
2017-02-15,1487116800,69.45,69.53,68.54,68.86,522800
2017-02-16,1487203200,69.05,69.83,69.05,69.8,267000
2017-02-17,1487289600,70.01,70.13,69.11,69.52,318600
2017-02-21,1487635200,69.53,70.23,69.48,70.17,188600
2017-02-22,1487721600,69.93,70.37,69.55,69.85,204500
2017-02-23,1487808000,70.05,70.14,69.65,69.72,250600
2017-02-24,1487894400,69.4,70.07,69.27,69.95,232400
2017-02-27,1488153600,69.7,70.57,69.7,70.06,251800
2017-02-28,1488240000,69.86,70.22,69.56,70.09,390200
2017-03-01,1488326400,70.75,71.65,70.48,71.55,371000
2017-03-02,1488412800,71.2,71.56,70.98,71.31,327700
2017-03-03,1488499200,71.05,71.72,71.05,71.53,298400
2017-03-06,1488758400,70.99,71.58,70.99,71.16,302100
2017-03-07,1488844800,71.06,71.43,70.72,70.99,452700
2017-03-08,1488931200,70.81,71.55,70.81,71.44,435600
2017-03-09,1489017600,71.38,71.94,71.11,71.35,341200
2017-03-10,1489104000,71.6,72.43,71.3,72.23,435400
2017-03-13,1489363200,72.24,72.43,71.64,72.2,221900
2017-03-14,1489449600,71.14,72.45,70.88,71.99,265900
2017-03-15,1489536000,72.36,73.08,72.27,72.66,225600
2017-03-16,1489622400,72.71,72.93,72.14,72.41,186200
2017-03-17,1489708800,72.34,72.66,72.05,72.51,405100
2017-03-20,1489968000,72.59,73.25,72.2,73.22,247300
2017-03-21,1490054400,73.11,73.21,72.08,72.22,321300
2017-03-22,1490140800,72.11,72.51,71.97,72.29,130100
2017-03-23,1490227200,72.27,73.13,71.79,72.58,136400
2017-03-24,1490313600,72.61,73.04,71.8,72.07,154300
2017-03-27,1490572800,71.31,72.21,71.31,72.07,256200
2017-03-28,1490659200,71.88,72.7,71.8,72.5,237700
2017-03-29,1490745600,72.54,72.54,71.95,72.47,129300
2017-03-30,1490832000,72.42,72.79,72.02,72.3,141800
2017-03-31,1490918400,72.34,72.7,71.89,72.42,197200
2017-04-03,1491177600,72.38,72.86,71.69,71.91,424900
2017-04-04,1491264000,71.96,72.34,71.44,72.19,318700
2017-04-05,1491350400,72.47,72.47,71.51,71.57,372800
2017-04-06,1491436800,71.43,72.0,71.01,71.99,293700
2017-04-07,1491523200,71.95,72.23,71.51,71.64,214800
2017-04-10,1491782400,71.43,72.39,71.42,72.33,242100
2017-04-11,1491868800,72.06,72.4,71.89,72.36,263700
2017-04-12,1491955200,72.33,72.36,71.53,71.71,236800
2017-04-13,1492041600,71.54,72.05,71.27,71.3,164800
2017-04-17,1492387200,71.52,72.71,71.38,72.69,220500
2017-04-18,1492473600,72.47,73.07,72.38,72.97,196800
2017-04-19,1492560000,73.25,73.31,72.91,72.95,264800
2017-04-20,1492646400,72.39,73.67,72.39,73.2,354300
2017-04-21,1492732800,73.54,73.97,72.53,73.36,185200
2017-04-24,1492992000,74.29,74.29,73.11,73.65,250700
2017-04-25,1493078400,73.7,74.47,73.02,74.06,290500
2017-04-26,1493164800,74.24,74.78,74.02,74.63,343000
2017-04-27,1493251200,74.5,74.88,73.78,74.12,237600
2017-04-28,1493337600,75.25,75.75,74.09,75.54,637700
2017-05-01,1493596800,75.63,76.12,74.81,75.3,974600
2017-05-02,1493683200,74.94,76.2,74.51,75.74,450100
2017-05-03,1493769600,75.45,76.18,75.08,75.98,384500
2017-05-04,1493856000,76.03,77.18,76.03,76.87,488800
2017-05-05,1493942400,76.88,77.6,76.8,77.36,413400
2017-05-08,1494201600,77.52,78.02,77.18,77.93,374100
2017-05-09,1494288000,78.02,78.33,77.55,77.9,302600
2017-05-10,1494374400,77.68,78.43,77.68,78.27,308100
2017-05-11,1494460800,77.91,78.31,77.27,77.94,311500
2017-05-12,1494547200,77.87,78.22,77.67,77.85,227600
2017-05-15,1494806400,77.85,78.37,77.62,78.04,211900
2017-05-16,1494892800,77.99,78.2,77.66,78.19,210700
2017-05-17,1494979200,78.19,78.19,77.3,77.71,266100
2017-05-18,1495065600,77.68,77.82,76.61,77.58,325700
2017-05-19,1495152000,77.62,77.93,77.27,77.78,331900
2017-05-22,1495411200,77.68,78.37,77.49,78.24,238500
2017-05-23,1495497600,78.39,79.01,78.36,78.57,204100
2017-05-24,1495584000,78.57,78.88,78.2,78.76,187400
2017-05-25,1495670400,78.97,79.6,78.63,79.47,203200
2017-05-26,1495756800,79.47,79.93,79.39,79.68,158300
2017-05-30,1496102400,79.46,79.94,79.14,79.84,224400
2017-05-31,1496188800,80.45,80.45,79.73,80.29,285400
2017-06-01,1496275200,80.51,81.51,80.29,81.47,272600
2017-06-02,1496361600,81.6,81.91,80.97,81.53,170700
2017-06-05,1496620800,81.32,82.25,81.01,81.08,237600
2017-06-06,1496707200,81.06,81.06,80.33,80.73,342600
2017-06-07,1496793600,80.38,81.15,80.33,80.93,366600
2017-06-08,1496880000,81.01,81.21,80.15,80.51,185000
2017-06-09,1496966400,80.56,81.03,80.45,80.89,189800
2017-06-12,1497225600,80.5,81.2,80.15,80.69,239000
2017-06-13,1497312000,81.09,81.39,80.73,81.39,178500
2017-06-14,1497398400,81.26,81.95,81.26,81.46,212300
2017-06-15,1497484800,80.77,81.5,80.18,81.44,200000
2017-06-16,1497571200,81.22,81.56,80.7,81.17,450200
2017-06-19,1497830400,81.52,82.04,81.16,81.93,166600
2017-06-20,1497916800,82.12,82.34,81.84,82.06,240200
2017-06-21,1498003200,82.09,83.05,81.74,82.17,185800
2017-06-22,1498089600,82.13,82.51,81.61,82.0,166200
2017-06-23,1498176000,82.01,82.81,81.53,81.98,474300
2017-06-26,1498435200,82.14,82.72,81.8,82.3,307000
2017-06-27,1498521600,82.17,82.65,81.54,81.57,187900
2017-06-28,1498608000,82.13,82.52,81.48,82.1,169600
2017-06-29,1498694400,82.04,82.29,81.01,81.68,196100
2017-06-30,1498780800,82.1,82.48,81.95,82.03,238500
2017-07-03,1499040000,82.36,82.8,82.06,82.24,118800
2017-07-05,1499212800,82.12,82.64,81.64,82.44,243900
2017-07-06,1499299200,82.01,82.87,81.87,82.46,393900
2017-07-07,1499385600,82.82,83.63,82.3,83.2,245200
2017-07-10,1499644800,83.06,84.12,82.62,83.39,246000
2017-07-11,1499731200,83.29,83.66,82.87,83.27,180700
2017-07-12,1499817600,83.92,84.36,83.52,84.04,142400
2017-07-13,1499904000,84.12,84.31,82.91,83.71,278600
2017-07-14,1499990400,84.17,84.97,83.98,84.46,305900
2017-07-17,1500249600,84.53,84.97,84.27,84.8,299300
2017-07-18,1500336000,84.43,85.39,84.13,84.75,278500
2017-07-19,1500422400,85.3,85.75,84.7,85.08,395300
2017-07-20,1500508800,85.25,85.45,84.56,84.72,323100
2017-07-21,1500595200,84.99,84.99,84.06,84.54,271500
2017-07-24,1500854400,84.3,84.92,83.97,84.79,390200
2017-07-25,1500940800,85.27,85.27,83.9,84.06,596900
2017-07-26,1501027200,84.15,84.33,83.4,83.47,317800
2017-07-27,1501113600,83.88,83.88,82.71,83.41,328900
2017-07-28,1501200000,79.05,79.33,76.61,78.02,915000
2017-07-31,1501459200,77.95,79.14,76.48,76.71,962700
2017-08-01,1501545600,76.77,78.47,76.76,78.21,463400
2017-08-02,1501632000,78.23,78.43,76.99,77.96,348600
2017-08-03,1501718400,78.01,78.12,77.55,77.96,322100
2017-08-04,1501804800,78.2,78.46,77.88,78.06,168100
2017-08-07,1502064000,78.24,78.62,78.09,78.42,171600
2017-08-08,1502150400,78.32,78.6,78.1,78.42,163300
2017-08-09,1502236800,78.2,78.48,77.95,78.18,188900
2017-08-10,1502323200,77.94,78.42,77.23,77.26,265100
2017-08-11,1502409600,78.05,78.05,77.16,77.85,214100
2017-08-14,1502668800,78.32,78.67,78.21,78.58,147300
2017-08-15,1502755200,78.42,78.67,78.24,78.43,190900
2017-08-16,1502841600,78.54,79.46,78.39,79.19,248800
2017-08-17,1502928000,78.93,79.16,77.84,77.85,221700
2017-08-18,1503014400,77.73,78.01,77.38,77.86,191000
2017-08-21,1503273600,77.78,78.18,77.1,77.24,126300
2017-08-22,1503360000,77.7,78.0,77.47,77.84,190100
2017-08-23,1503446400,77.49,78.22,77.24,77.35,180500
2017-08-24,1503532800,77.47,77.78,76.73,76.85,180000
2017-08-25,1503619200,77.25,78.41,77.25,78.09,330100
2017-08-28,1503878400,78.34,78.46,77.24,77.59,241600
2017-08-29,1503964800,77.63,77.82,77.31,77.72,226300
2017-08-30,1504051200,77.85,78.84,77.63,78.64,207600
2017-08-31,1504137600,78.84,79.3,78.4,79.25,266700
2017-09-01,1504224000,79.43,79.62,79.07,79.5,183000
2017-09-05,1504569600,79.35,79.78,78.84,78.91,191900
2017-09-06,1504656000,78.98,78.98,78.19,78.53,240900
2017-09-07,1504742400,78.63,79.37,78.03,79.25,241000
2017-09-08,1504828800,79.14,79.79,78.45,79.45,207600
2017-09-11,1505088000,79.92,80.73,79.62,80.68,209800
2017-09-12,1505174400,80.5,80.98,80.29,80.76,214500
2017-09-13,1505260800,80.2,80.6,79.97,80.09,229000
2017-09-14,1505347200,80.1,80.66,79.77,80.44,166300
2017-09-15,1505433600,80.32,80.52,80.07,80.29,399800
2017-09-18,1505692800,80.54,81.2,80.32,80.98,198600
2017-09-19,1505779200,80.97,81.29,80.52,81.1,260300
2017-09-20,1505865600,81.19,81.74,81.17,81.63,167200
2017-09-21,1505952000,81.59,82.23,81.39,81.66,199600
2017-09-22,1506038400,81.7,81.77,80.99,81.25,189400
2017-09-25,1506297600,81.28,82.36,80.9,82.23,222800
2017-09-26,1506384000,82.56,82.76,81.94,82.22,199700
2017-09-27,1506470400,82.27,82.39,81.71,82.03,272900
2017-09-28,1506556800,81.85,82.94,81.6,82.54,228200
2017-09-29,1506643200,82.48,82.58,81.8,81.81,220700
2017-10-02,1506902400,82.28,83.38,82.03,83.3,264000
2017-10-03,1506988800,83.31,83.83,83.31,83.82,202100
2017-10-04,1507075200,83.66,84.21,83.33,83.54,231600
2017-10-05,1507161600,83.89,84.1,83.05,83.54,178900
2017-10-06,1507248000,83.45,84.01,83.31,83.96,162800
2017-10-09,1507507200,84.05,84.16,83.72,83.84,139400
2017-10-10,1507593600,83.98,84.23,83.62,83.85,186700
2017-10-11,1507680000,83.86,84.17,83.59,83.75,162500
2017-10-12,1507766400,83.88,84.08,83.62,83.87,168000
2017-10-13,1507852800,84.06,84.71,84.06,84.21,187100
2017-10-16,1508112000,84.28,84.3,83.38,84.3,236000
2017-10-17,1508198400,84.64,84.64,84.08,84.34,175200
2017-10-18,1508284800,84.1,84.71,83.71,83.98,207400
2017-10-19,1508371200,83.89,84.2,83.74,84.02,151600
2017-10-20,1508457600,84.57,84.65,84.07,84.55,134800
2017-10-23,1508716800,84.51,85.0,84.28,84.39,418900
2017-10-24,1508803200,84.41,84.95,84.2,84.47,189100
2017-10-25,1508889600,84.42,84.8,83.12,83.87,201800
2017-10-26,1508976000,84.18,84.58,83.98,84.3,234700
2017-10-27,1509062400,84.74,84.74,81.41,83.34,531500
2017-10-30,1509321600,82.9,83.02,81.75,81.95,260400
2017-10-31,1509408000,82.05,83.05,81.93,82.83,474700
2017-11-01,1509494400,83.56,83.83,82.97,83.16,279300
2017-11-02,1509580800,82.85,83.12,82.12,82.39,259200
2017-11-03,1509667200,82.39,82.94,82.39,82.71,216000
2017-11-06,1509926400,82.79,82.84,81.51,81.67,271600
2017-11-07,1510012800,81.67,81.92,81.24,81.55,326900
2017-11-08,1510099200,81.51,82.39,81.47,81.56,271400
2017-11-09,1510185600,81.06,81.26,80.22,80.64,146600
2017-11-10,1510272000,80.25,80.97,80.12,80.78,195800
2017-11-13,1510531200,80.5,81.59,80.5,81.43,156100
2017-11-14,1510617600,81.23,81.71,81.02,81.45,157400
2017-11-15,1510704000,81.38,81.8,80.94,81.32,182500
2017-11-16,1510790400,81.57,82.29,81.44,81.92,264400
2017-11-17,1510876800,81.84,82.04,81.32,81.48,171000
2017-11-20,1511136000,81.45,82.23,81.17,81.31,220200
2017-11-21,1511222400,81.74,82.6,81.17,82.33,506700
2017-11-22,1511308800,82.4,82.41,81.62,81.67,140300
2017-11-24,1511481600,81.33,82.14,80.96,82.05,108200
2017-11-27,1511740800,82.17,82.77,82.17,82.52,330900
2017-11-28,1511827200,83.03,83.21,82.23,82.68,194600
2017-11-29,1511913600,82.87,83.47,82.84,83.3,193900
2017-11-30,1512000000,83.35,84.58,82.84,84.11,232000
2017-12-01,1512086400,84.03,84.66,82.23,83.34,244300
2017-12-04,1512345600,83.52,84.38,83.07,83.78,290400
2017-12-05,1512432000,84.03,84.82,83.61,84.67,255800
2017-12-06,1512518400,84.61,84.61,83.83,83.88,251700
2017-12-07,1512604800,84.15,84.4,83.52,84.08,258900
2017-12-08,1512691200,83.98,84.19,83.3,83.62,251000
2017-12-11,1512950400,83.6,83.6,82.63,83.03,241200
2017-12-12,1513036800,83.05,83.28,81.53,82.23,424400
2017-12-13,1513123200,81.86,82.95,81.59,82.47,420900
2017-12-14,1513209600,82.84,82.97,82.12,82.17,302000
2017-12-15,1513296000,82.38,83.25,82.38,82.75,474900
2017-12-18,1513555200,83.01,83.61,82.27,82.36,251800
2017-12-19,1513641600,82.1,83.39,82.1,82.37,367200
2017-12-20,1513728000,82.62,82.89,82.09,82.13,189500
2017-12-21,1513814400,82.2,82.57,81.55,81.59,265400
2017-12-22,1513900800,81.51,82.16,81.27,81.72,162500
2017-12-26,1514246400,81.62,82.24,81.07,81.24,130500
2017-12-27,1514332800,81.26,81.64,80.92,81.45,114500
2017-12-28,1514419200,81.67,82.64,81.49,82.53,207000
2017-12-29,1514505600,82.65,82.77,82.04,82.08,148900
2018-01-02,1514851200,82.23,83.07,81.89,82.78,233300
2018-01-03,1514937600,83.01,83.35,82.6,82.95,177700
2018-01-04,1515024000,82.97,83.65,81.63,81.83,362900
2018-01-05,1515110400,82.09,83.2,82.0,82.68,209200
2018-01-08,1515369600,82.63,83.25,82.36,82.96,341200
2018-01-09,1515456000,83.03,83.49,82.16,82.19,282000
2018-01-10,1515542400,81.91,81.91,81.02,81.5,161400
2018-01-11,1515628800,81.28,82.28,81.28,82.05,311600
2018-01-12,1515715200,82.17,82.71,81.7,82.35,179400
2018-01-16,1516060800,82.16,82.97,81.83,82.04,254000
2018-01-17,1516147200,82.55,83.03,82.3,82.62,250400
2018-01-18,1516233600,82.62,83.07,82.15,83.0,220800
2018-01-19,1516320000,83.05,84.38,83.05,84.3,177500
2018-01-22,1516579200,84.3,84.3,82.39,83.21,369900
2018-01-23,1516665600,83.19,83.48,82.68,83.34,158800
2018-01-24,1516752000,83.54,84.29,82.15,83.91,255000
2018-01-25,1516838400,84.1,85.08,83.84,85.08,339100
2018-01-26,1516924800,85.13,85.15,84.16,84.8,206300
2018-01-29,1517184000,84.41,84.89,83.28,83.46,254300
2018-01-30,1517270400,83.5,83.99,83.12,83.73,345000
2018-01-31,1517356800,84.11,84.12,82.84,83.47,519100
2018-02-01,1517443200,83.3,83.67,81.93,82.92,220800
2018-02-02,1517529600,82.62,82.98,81.68,81.92,217000
2018-02-05,1517788800,81.26,82.12,79.61,79.61,434200
2018-02-06,1517875200,78.66,80.1,77.73,80.01,352300
2018-02-07,1517961600,80.02,81.07,79.95,80.06,304100
2018-02-08,1518048000,80.07,80.99,77.69,77.7,349100
2018-02-09,1518134400,78.38,78.86,76.36,78.45,367200
2018-02-12,1518393600,78.83,79.68,77.9,78.87,303000
2018-02-13,1518480000,82.83,88.15,82.4,85.67,1102000
2018-02-14,1518566400,85.53,86.77,84.73,86.57,512100
2018-02-15,1518652800,86.11,87.82,86.11,87.05,333300
2018-02-16,1518739200,86.93,87.98,86.4,87.68,335500
2018-02-20,1519084800,87.12,88.03,86.62,86.95,372000
2018-02-21,1519171200,87.21,88.11,86.04,86.09,283200
2018-02-22,1519257600,86.36,87.33,86.23,86.52,255300
2018-02-23,1519344000,86.64,86.96,85.87,86.88,249400
2018-02-26,1519603200,87.16,87.35,86.31,86.68,250300
2018-02-27,1519689600,86.63,86.63,85.4,85.46,286500
2018-02-28,1519776000,85.68,86.33,85.18,85.38,306900
2018-03-01,1519862400,85.21,86.4,84.32,84.98,241900
2018-03-02,1519948800,84.73,85.83,84.31,85.63,270600
2018-03-05,1520208000,85.28,86.6,85.28,86.32,231200
2018-03-06,1520294400,86.29,86.94,85.25,86.67,295800
2018-03-07,1520380800,85.92,87.02,85.66,86.07,317500
2018-03-08,1520467200,86.32,86.73,85.41,85.89,368000
2018-03-09,1520553600,85.88,86.84,85.51,86.77,283100
2018-03-12,1520812800,86.6,86.88,86.32,86.68,181100
2018-03-13,1520899200,87.15,87.94,86.19,86.41,257500
2018-03-14,1520985600,86.85,87.15,85.39,86.0,266900
2018-03-15,1521072000,86.07,86.48,85.74,86.2,239600
2018-03-16,1521158400,86.27,87.01,85.71,86.08,424800
2018-03-19,1521417600,85.99,86.28,85.41,85.9,155000
2018-03-20,1521504000,85.95,86.4,85.62,85.72,247700
2018-03-21,1521590400,85.66,86.26,85.35,85.54,266300
2018-03-22,1521676800,85.19,85.85,83.96,83.99,260900
2018-03-23,1521763200,83.97,83.97,82.77,82.85,215900
2018-03-26,1522022400,83.7,84.55,83.14,84.23,278900
2018-03-27,1522108800,84.52,85.1,83.66,84.1,253200
2018-03-28,1522195200,84.1,84.88,83.85,84.37,194000
2018-03-29,1522281600,84.87,86.26,84.37,85.77,287300
2018-04-02,1522627200,85.33,85.69,83.23,83.96,184400
2018-04-03,1522713600,84.44,86.1,83.73,85.51,336600
2018-04-04,1522800000,84.9,85.89,82.93,85.66,276500
2018-04-05,1522886400,86.22,86.75,85.25,86.32,276400
2018-04-06,1522972800,85.64,86.28,84.24,84.5,362200
2018-04-09,1523232000,85.12,86.26,84.6,85.84,471500
2018-04-10,1523318400,86.65,88.89,86.03,88.53,455600
2018-04-11,1523404800,87.82,88.46,87.61,88.08,250800
2018-04-12,1523491200,88.57,89.04,88.3,88.51,221500
2018-04-13,1523577600,88.99,89.11,88.28,88.56,262600
2018-04-16,1523836800,88.83,90.38,88.76,90.05,196900
2018-04-17,1523923200,90.02,92.04,89.55,91.79,507200
2018-04-18,1524009600,91.81,91.85,90.88,91.29,346800
2018-04-19,1524096000,90.76,91.55,90.27,90.52,165000
2018-04-20,1524182400,90.81,90.84,89.87,90.17,217800
2018-04-23,1524441600,90.43,91.12,89.85,90.09,189500
2018-04-24,1524528000,90.33,90.42,88.58,88.97,401900
2018-04-25,1524614400,88.82,89.71,88.2,88.94,298700
2018-04-26,1524700800,88.97,89.47,88.42,89.07,417000
2018-04-27,1524787200,89.52,90.46,87.73,89.24,407500
2018-04-30,1525046400,89.5,89.74,88.85,89.28,907800
2018-05-01,1525132800,89.23,89.63,88.54,89.32,427800
2018-05-02,1525219200,89.75,89.75,88.29,88.38,631100
2018-05-03,1525305600,88.08,88.64,86.87,87.0,560200
2018-05-04,1525392000,86.74,88.58,86.74,88.09,339900
2018-05-07,1525651200,88.2,89.08,88.13,88.61,215100
2018-05-08,1525737600,88.89,88.91,87.72,87.92,284600
2018-05-09,1525824000,88.15,89.16,87.54,89.07,255500
2018-05-10,1525910400,89.2,90.01,89.15,89.86,377900
2018-05-11,1525996800,89.83,90.37,89.25,90.34,492900
2018-05-14,1526256000,90.25,90.75,88.43,89.46,477500
2018-05-15,1526342400,89.27,89.27,87.76,88.24,406400
2018-05-16,1526428800,88.46,89.84,88.07,89.62,257600
2018-05-17,1526515200,89.75,89.99,89.15,89.38,242600
2018-05-18,1526601600,88.69,90.33,88.51,89.64,272300
2018-05-21,1526860800,90.08,90.46,89.91,90.07,162300
2018-05-22,1526947200,90.33,90.98,89.75,90.03,165300
2018-05-23,1527033600,89.71,90.32,89.45,90.15,165800
2018-05-24,1527120000,90.18,90.52,89.66,90.09,116200
2018-05-25,1527206400,89.95,90.47,89.92,90.14,154900
2018-05-29,1527552000,89.55,90.07,89.16,89.4,212700
2018-05-30,1527638400,88.82,90.46,88.82,90.03,258600
2018-05-31,1527724800,90.3,90.44,88.33,88.46,151900
2018-06-01,1527811200,88.99,89.38,88.6,88.89,174800
2018-06-04,1528070400,89.21,89.97,88.57,89.93,172100
2018-06-05,1528156800,90.12,90.54,89.64,89.99,114800
2018-06-06,1528243200,89.75,90.16,88.19,89.98,437300
2018-06-07,1528329600,89.9,90.48,88.57,89.34,534000
2018-06-08,1528416000,89.15,89.97,89.09,89.74,290600
2018-06-11,1528675200,89.86,90.89,89.52,89.89,389400
2018-06-12,1528761600,90.15,90.92,89.68,90.21,455100
2018-06-13,1528848000,90.59,91.02,90.11,90.37,321400
2018-06-14,1528934400,90.84,91.27,90.31,90.89,320400
2018-06-15,1529020800,91.02,91.38,90.44,90.95,505200
2018-06-18,1529280000,90.61,91.1,90.08,90.87,347300
2018-06-19,1529366400,90.02,90.66,89.69,90.3,333700
2018-06-20,1529452800,90.23,90.9,90.01,90.68,285600
2018-06-21,1529539200,90.55,90.65,89.06,89.2,296900
2018-06-22,1529625600,89.38,89.58,88.47,88.75,681100
2018-06-25,1529884800,88.89,89.3,87.59,88.32,348700
2018-06-26,1529971200,88.48,89.54,88.17,88.83,266700
2018-06-27,1530057600,88.9,89.98,88.22,88.24,295800
2018-06-28,1530144000,88.15,88.88,87.82,88.83,251300
2018-06-29,1530230400,89.3,90.18,89.04,89.47,335800
2018-07-02,1530489600,89.02,89.84,88.59,89.67,237500
2018-07-03,1530576000,90.03,91.05,89.69,90.06,178000
2018-07-05,1530748800,90.53,90.58,89.54,90.58,249900
2018-07-06,1530835200,90.28,90.43,89.8,90.14,238000
2018-07-09,1531094400,90.5,91.63,90.5,91.12,188700
2018-07-10,1531180800,91.19,92.13,91.19,92.09,216100
2018-07-11,1531267200,91.61,92.34,91.13,91.67,220800
2018-07-12,1531353600,91.98,92.78,91.59,91.73,196700
2018-07-13,1531440000,91.37,92.16,90.7,90.9,205300
2018-07-16,1531699200,90.8,90.91,89.27,89.38,132000
2018-07-17,1531785600,89.32,90.77,89.26,90.68,155400
2018-07-18,1531872000,90.68,91.2,90.24,90.66,150000
2018-07-19,1531958400,90.74,92.5,90.74,92.3,213300
2018-07-20,1532044800,91.92,92.13,91.34,91.77,192600
2018-07-23,1532304000,91.92,92.3,90.82,91.16,195800
2018-07-24,1532390400,91.35,91.85,90.57,90.78,225300
2018-07-25,1532476800,90.61,91.02,90.11,90.76,182300
2018-07-26,1532563200,90.91,92.35,90.6,92.05,170300
2018-07-27,1532649600,93.9,98.72,93.08,98.59,626000
2018-07-30,1532908800,99.19,99.74,95.76,98.21,531800
2018-07-31,1532995200,98.52,99.48,96.88,98.47,588100
2018-08-01,1533081600,98.44,98.71,97.49,98.47,301400
2018-08-02,1533168000,97.71,99.57,97.39,99.0,327400
2018-08-03,1533254400,99.01,100.46,98.87,100.07,300200
2018-08-06,1533513600,99.99,100.89,99.96,100.18,279500
2018-08-07,1533600000,100.13,100.63,99.39,99.55,296500
2018-08-08,1533686400,99.34,99.96,98.89,98.98,277900
2018-08-09,1533772800,99.12,100.05,99.02,99.88,265500
2018-08-10,1533859200,99.37,100.02,98.21,98.42,325600
2018-08-13,1534118400,98.29,99.47,97.04,97.48,227800
2018-08-14,1534204800,97.95,98.54,97.41,98.04,176500
2018-08-15,1534291200,97.63,97.73,96.19,97.42,300500
2018-08-16,1534377600,97.69,98.21,97.43,97.74,276300
2018-08-17,1534464000,97.75,99.01,97.48,98.79,131800
2018-08-20,1534723200,98.94,99.52,98.63,98.88,198600
2018-08-21,1534809600,98.85,99.83,98.85,99.3,209600
2018-08-22,1534896000,99.32,99.4,98.77,99.19,103300
2018-08-23,1534982400,99.32,99.55,98.79,98.93,124400
2018-08-24,1535068800,99.0,100.11,99.0,99.79,127300
2018-08-27,1535328000,99.78,100.79,99.78,100.5,175400
2018-08-28,1535414400,100.52,101.12,99.8,99.87,214900
2018-08-29,1535500800,100.17,101.1,99.76,100.65,199700
2018-08-30,1535587200,100.8,101.68,99.8,100.65,231900
2018-08-31,1535673600,100.57,101.36,100.34,100.66,153000
2018-09-04,1536019200,101.25,102.38,100.54,102.27,323600
2018-09-05,1536105600,102.17,104.57,102.17,104.0,334100
2018-09-06,1536192000,104.21,105.45,103.95,104.74,228400
2018-09-07,1536278400,104.73,104.73,103.62,103.73,258500
2018-09-10,1536537600,104.2,104.86,103.72,104.36,212400
2018-09-11,1536624000,104.07,104.52,103.38,104.32,101600
2018-09-12,1536710400,104.17,105.39,103.94,105.16,154700
2018-09-13,1536796800,104.54,106.61,104.47,106.53,273900
2018-09-14,1536883200,106.49,107.82,105.54,107.64,424200
2018-09-17,1537142400,107.96,107.97,106.62,107.0,564500
2018-09-18,1537228800,106.9,107.47,105.72,107.27,202600
2018-09-19,1537315200,107.35,107.57,106.26,106.83,204300
2018-09-20,1537401600,106.98,107.2,105.93,106.22,204500
2018-09-21,1537488000,105.91,106.56,105.43,106.05,473200
2018-09-24,1537747200,105.94,107.16,105.74,106.11,352400
2018-09-25,1537833600,106.47,106.67,104.42,104.55,279000
2018-09-26,1537920000,104.46,105.26,104.18,104.4,629100
2018-09-27,1538006400,104.4,104.97,103.98,104.15,255600
2018-09-28,1538092800,104.03,104.68,103.39,103.57,416900
2018-10-01,1538352000,103.87,104.98,103.22,103.6,208600
2018-10-02,1538438400,103.76,104.41,103.44,103.97,210300
2018-10-03,1538524800,104.31,104.43,103.37,103.82,361200
2018-10-04,1538611200,103.62,103.62,102.19,102.95,273300
2018-10-05,1538697600,103.03,103.48,102.82,103.03,220800
2018-10-08,1538956800,102.98,103.68,102.71,103.51,164700
2018-10-09,1539043200,103.24,103.24,101.59,101.63,277500
2018-10-10,1539129600,101.23,101.68,98.17,98.46,456000
2018-10-11,1539216000,98.41,99.46,97.54,97.64,312700
2018-10-12,1539302400,98.71,99.36,96.46,97.72,399100
2018-10-15,1539561600,97.74,98.98,97.14,98.2,239600
2018-10-16,1539648000,98.69,101.68,98.69,101.52,231300
2018-10-17,1539734400,101.99,101.99,100.38,100.96,180900
2018-10-18,1539820800,100.68,101.17,99.81,100.24,439900
2018-10-19,1539907200,100.55,101.14,100.25,100.29,271800
2018-10-22,1540166400,100.56,100.69,99.06,99.95,199300
2018-10-23,1540252800,98.76,100.53,97.79,99.67,479500
2018-10-24,1540339200,99.62,99.8,96.02,96.21,498300
2018-10-25,1540425600,96.98,98.03,96.62,97.37,299800
2018-10-26,1540512000,96.57,97.14,95.47,96.48,423800
2018-10-29,1540771200,97.4,98.12,95.31,96.29,271300
2018-10-30,1540857600,96.5,97.82,95.82,97.78,318600
2018-10-31,1540944000,98.8,99.42,98.24,98.35,417100
2018-11-01,1541030400,99.05,99.81,98.77,99.53,392600
2018-11-02,1541116800,93.61,101.6,91.69,100.13,959300
2018-11-05,1541376000,100.31,100.78,97.67,98.27,481500
2018-11-06,1541462400,98.04,101.06,97.9,100.41,381300
2018-11-07,1541548800,101.17,101.53,99.68,101.39,340200
2018-11-08,1541635200,101.23,102.03,100.9,101.41,368400
2018-11-09,1541721600,101.24,102.05,99.48,100.6,227100
2018-11-12,1541980800,100.47,100.66,97.98,98.17,343100
2018-11-13,1542067200,98.71,99.8,97.95,98.76,225200
2018-11-14,1542153600,99.39,100.23,98.11,98.47,163200
2018-11-15,1542240000,97.96,101.12,97.63,101.08,261000
2018-11-16,1542326400,100.5,103.36,100.5,102.52,235400
2018-11-19,1542585600,102.44,102.87,101.0,101.46,192700
2018-11-20,1542672000,100.92,101.7,99.71,100.62,246800
2018-11-21,1542758400,100.97,101.47,99.5,99.84,221600
2018-11-23,1542931200,99.35,100.72,99.33,100.22,75400
2018-11-26,1543190400,101.01,101.27,99.31,100.02,231700
2018-11-27,1543276800,99.64,99.66,98.48,98.68,213400
2018-11-28,1543363200,99.16,100.39,98.08,100.35,327800
2018-11-29,1543449600,100.05,101.22,100.02,100.17,238400
2018-11-30,1543536000,99.99,100.85,99.59,100.37,330400
2018-12-03,1543795200,101.5,101.77,98.82,100.76,292000
2018-12-04,1543881600,101.15,101.15,99.19,99.3,273100
2018-12-06,1544054400,98.39,98.39,94.87,98.03,302900
2018-12-07,1544140800,97.32,99.21,95.59,96.24,226100
2018-12-10,1544400000,95.91,96.32,94.74,95.6,161100
2018-12-11,1544486400,96.56,97.44,94.8,95.18,192600
2018-12-12,1544572800,96.56,97.37,96.22,96.39,240900
2018-12-13,1544659200,96.87,97.69,95.99,96.77,167800
2018-12-14,1544745600,96.5,97.39,95.62,96.79,187100
2018-12-17,1545004800,96.31,97.09,94.57,95.15,313900
2018-12-18,1545091200,95.91,96.72,93.83,94.47,231000
2018-12-19,1545177600,94.8,95.34,91.9,92.21,268300
2018-12-20,1545264000,92.13,92.75,90.35,91.65,248100
2018-12-21,1545350400,91.41,93.19,90.2,90.24,588800
2018-12-24,1545609600,89.57,89.57,86.5,86.52,168300
2018-12-26,1545782400,86.54,88.75,86.54,88.52,394400
2018-12-27,1545868800,87.49,89.21,86.82,89.1,467500
2018-12-28,1545955200,89.32,90.59,88.79,89.42,437400
2018-12-31,1546214400,89.53,90.74,89.38,90.74,246900
2019-01-02,1546387200,89.45,89.45,86.28,86.99,517500
2019-01-03,1546473600,85.82,87.02,85.14,85.94,637200
2019-01-04,1546560000,86.91,88.65,86.13,87.85,433600
2019-01-07,1546819200,87.39,90.18,87.37,88.69,525400
2019-01-08,1546905600,89.53,90.77,88.51,90.21,379600
2019-01-09,1546992000,90.54,90.87,89.91,90.17,195700
2019-01-10,1547078400,89.84,91.46,89.83,91.23,205800
2019-01-11,1547164800,91.32,91.4,90.12,91.38,248200
2019-01-14,1547424000,90.94,91.49,90.42,90.63,210500
2019-01-15,1547510400,90.64,92.02,90.58,91.45,213900
2019-01-16,1547596800,91.46,91.97,91.05,91.36,187100
2019-01-17,1547683200,91.05,92.77,91.04,92.53,265500
2019-01-18,1547769600,92.7,94.5,92.49,94.23,237400
2019-01-22,1548115200,93.97,94.77,91.75,93.03,304000
2019-01-23,1548201600,93.28,94.31,92.84,93.93,266300
2019-01-24,1548288000,93.81,94.59,93.29,93.69,135300
2019-01-25,1548374400,94.44,94.87,93.63,93.94,116300
2019-01-28,1548633600,93.94,95.02,93.84,94.42,217900
2019-01-29,1548720000,94.3,95.27,94.3,94.8,161600
2019-01-30,1548806400,94.96,95.63,94.49,94.82,292500
2019-01-31,1548892800,94.86,96.1,94.12,95.94,346500
2019-02-01,1548979200,96.15,96.78,95.88,96.36,269600
2019-02-04,1549238400,96.23,96.69,95.36,96.65,137200
2019-02-05,1549324800,96.75,97.89,96.23,97.83,288000
2019-02-06,1549411200,97.4,98.73,97.36,98.34,206800
2019-02-07,1549497600,97.89,98.77,97.61,98.68,202100
2019-02-08,1549584000,98.32,99.03,97.73,98.14,184300
2019-02-11,1549843200,98.62,99.17,98.0,98.44,239100
2019-02-12,1549929600,99.02,99.4,98.48,99.04,230000
2019-02-13,1550016000,99.42,100.19,98.98,99.51,229700
2019-02-14,1550102400,98.96,99.73,98.31,98.51,234000
2019-02-15,1550188800,99.04,99.18,98.1,98.67,235800
2019-02-19,1550534400,98.58,98.76,98.02,98.3,378800
2019-02-20,1550620800,98.22,99.37,98.06,98.98,282100
2019-02-21,1550707200,99.02,100.67,97.42,99.82,508600
2019-02-22,1550793600,99.2,100.23,98.0,98.78,303400
2019-02-25,1551052800,98.99,99.31,97.87,98.31,336100
2019-02-26,1551139200,97.97,98.41,97.7,98.06,302500
2019-02-27,1551225600,98.75,99.02,97.56,98.16,375300
2019-02-28,1551312000,98.02,98.78,97.74,98.47,311500
2019-03-01,1551398400,98.94,98.94,97.46,97.58,245900
2019-03-04,1551657600,98.01,98.88,97.41,98.35,324000
2019-03-05,1551744000,98.42,98.99,98.08,98.22,211000
2019-03-06,1551830400,98.28,98.75,97.21,97.27,127500
2019-03-07,1551916800,96.99,97.41,96.18,96.68,151600
2019-03-08,1552003200,96.03,97.4,96.03,97.25,146300
2019-03-11,1552262400,97.38,98.8,97.35,98.75,175300
2019-03-12,1552348800,98.79,99.61,98.78,98.98,176700
2019-03-13,1552435200,99.22,100.03,98.82,99.0,287600
2019-03-14,1552521600,99.06,99.74,98.55,99.59,169400
2019-03-15,1552608000,99.62,100.26,99.29,99.75,278600
2019-03-18,1552867200,99.91,100.51,99.55,100.39,132800
2019-03-19,1552953600,100.88,101.24,99.93,100.28,188800
2019-03-20,1553040000,100.11,101.47,99.56,100.62,181300
2019-03-21,1553126400,100.25,102.29,100.25,102.16,194000
2019-03-22,1553212800,101.89,101.89,100.18,100.5,213200
2019-03-25,1553472000,100.23,101.61,99.72,101.16,163900
2019-03-26,1553558400,101.64,102.97,101.35,102.06,262300
2019-03-27,1553644800,102.14,103.08,101.76,102.14,179500
2019-03-28,1553731200,102.37,102.98,102.04,102.79,129900
2019-03-29,1553817600,102.7,103.26,102.09,102.98,337900
2019-04-01,1554076800,103.48,104.37,102.81,104.26,234000
2019-04-02,1554163200,104.35,104.35,103.24,103.78,194600
2019-04-03,1554249600,104.16,104.62,103.73,104.03,201200
2019-04-04,1554336000,104.23,104.69,103.85,104.64,164000
2019-04-05,1554422400,104.12,105.47,104.12,105.26,161400
2019-04-08,1554681600,105.17,105.77,104.53,105.5,149600
2019-04-09,1554768000,104.92,105.08,104.08,104.69,183400
2019-04-10,1554854400,104.75,105.8,104.49,105.55,166200
2019-04-11,1554940800,105.79,106.34,105.49,106.15,228900
2019-04-12,1555027200,106.43,107.15,106.27,106.78,185900
2019-04-15,1555286400,106.8,106.96,105.98,106.37,190500
2019-04-16,1555372800,106.29,106.45,105.28,106.11,197600
2019-04-17,1555459200,106.17,106.23,104.14,104.25,150500
2019-04-18,1555545600,104.47,104.91,103.86,104.74,214600
2019-04-22,1555891200,104.78,105.87,104.78,105.44,165800
2019-04-23,1555977600,105.54,106.99,105.54,106.53,220800
2019-04-24,1556064000,106.45,107.31,106.42,106.42,152200
2019-04-25,1556150400,105.71,106.45,105.34,105.94,132400
2019-04-26,1556236800,106.2,108.07,106.19,107.85,138900
2019-04-29,1556496000,107.81,108.14,107.21,107.75,137600
2019-04-30,1556582400,107.55,108.58,106.75,108.03,277600
2019-05-01,1556668800,109.03,111.35,108.33,109.55,336100
2019-05-02,1556755200,109.55,109.85,108.39,109.73,345200
2019-05-03,1556841600,110.03,110.84,109.47,110.56,310200
2019-05-06,1557100800,109.29,112.18,109.29,111.7,263000
2019-05-07,1557187200,110.69,111.37,109.87,110.68,159500
2019-05-08,1557273600,110.49,111.17,110.04,110.7,169400
2019-05-09,1557360000,110.1,110.5,109.5,109.73,259300
2019-05-10,1557446400,109.46,110.42,108.94,110.32,225100
2019-05-13,1557705600,108.68,109.9,108.07,109.54,160100
2019-05-14,1557792000,110.11,111.06,109.63,109.72,132600
2019-05-15,1557878400,109.5,110.48,109.11,109.97,116500
2019-05-16,1557964800,110.1,111.19,109.99,110.81,218800
2019-05-17,1558051200,110.21,111.15,110.21,110.49,151800
2019-05-20,1558310400,109.92,110.52,109.57,109.77,175600
2019-05-21,1558396800,110.23,110.6,109.82,110.2,156300
2019-05-22,1558483200,110.48,110.69,109.73,109.88,146800
2019-05-23,1558569600,109.29,110.4,108.8,109.7,119600
2019-05-24,1558656000,110.02,110.58,109.49,109.67,117700
2019-05-28,1559001600,109.77,110.34,109.43,109.64,259200
2019-05-29,1559088000,109.29,110.16,109.04,109.44,188200
2019-05-30,1559174400,109.47,110.35,109.29,110.23,128700
2019-05-31,1559260800,109.28,110.44,108.28,110.0,247400
2019-06-03,1559520000,110.13,111.68,110.13,110.73,297400
2019-06-04,1559606400,111.39,112.63,110.39,112.38,483400
2019-06-05,1559692800,112.55,113.79,112.07,113.75,392000
2019-06-06,1559779200,113.82,116.91,113.82,116.76,319800
2019-06-07,1559865600,116.53,119.06,116.45,118.4,427800
2019-06-10,1560124800,118.66,119.72,118.12,119.66,253200
2019-06-11,1560211200,120.42,120.85,117.71,119.04,365600
2019-06-12,1560297600,119.44,119.44,117.69,118.11,273400
2019-06-13,1560384000,117.99,118.57,116.83,117.23,166500
2019-06-14,1560470400,116.98,117.03,116.11,116.62,187300
2019-06-17,1560729600,116.57,117.35,116.33,116.7,136300
2019-06-18,1560816000,117.11,117.21,115.93,116.04,208300
2019-06-19,1560902400,116.17,116.53,115.39,115.96,340200
2019-06-20,1560988800,117.4,117.5,114.86,116.35,335100
2019-06-21,1561075200,115.87,116.39,114.04,115.93,603600
2019-06-24,1561334400,116.05,116.05,115.06,115.35,187700
2019-06-25,1561420800,115.56,118.27,115.44,117.56,300700
2019-06-26,1561507200,117.74,117.75,115.66,115.79,236700
2019-06-27,1561593600,115.94,118.29,115.94,118.04,247700
2019-06-28,1561680000,118.11,121.15,118.11,120.75,831100
2019-07-01,1561939200,121.39,122.55,119.56,120.68,322000
2019-07-02,1562025600,120.78,121.11,119.66,119.97,402400
2019-07-03,1562112000,120.42,122.28,120.42,122.28,188600
2019-07-05,1562284800,121.59,121.64,119.46,121.01,255300
2019-07-08,1562544000,121.87,121.87,120.07,120.41,199600
2019-07-09,1562630400,120.21,120.93,120.21,120.48,235000
2019-07-10,1562716800,121.03,122.16,119.79,120.01,169900
2019-07-11,1562803200,119.71,120.53,119.46,120.44,226400
2019-07-12,1562889600,120.6,120.6,119.65,119.84,241000
2019-07-15,1563148800,119.59,120.38,119.14,119.37,189600
2019-07-16,1563235200,119.56,119.8,118.77,119.6,230800
2019-07-17,1563321600,119.56,120.83,119.56,119.96,267300
2019-07-18,1563408000,119.59,120.85,119.47,120.77,173900
2019-07-19,1563494400,121.11,121.34,119.8,119.83,226000
2019-07-22,1563753600,119.94,120.31,119.27,119.6,153800
2019-07-23,1563840000,120.31,121.11,119.81,120.91,183600
2019-07-24,1563926400,120.43,120.95,119.29,119.73,215300
2019-07-25,1564012800,119.45,120.69,119.13,119.37,273700
2019-07-26,1564099200,119.57,121.16,119.38,120.89,198000
2019-07-29,1564358400,120.85,122.03,119.97,121.33,277400
2019-07-30,1564444800,120.57,121.32,119.75,120.58,221700
2019-07-31,1564531200,120.27,120.63,116.81,117.86,621400
2019-08-01,1564617600,117.05,117.05,111.84,114.49,533000
2019-08-02,1564704000,113.57,115.25,112.63,114.94,316600
2019-08-05,1564963200,113.4,115.92,113.22,114.03,462500
2019-08-06,1565049600,114.48,117.66,114.32,116.6,356400
2019-08-07,1565136000,115.99,119.07,115.6,118.49,268700
2019-08-08,1565222400,119.28,120.76,118.42,119.66,374300
2019-08-09,1565308800,119.54,120.01,117.89,117.92,186400
2019-08-12,1565568000,117.86,118.51,116.79,116.89,135600
2019-08-13,1565654400,116.65,118.63,115.94,118.06,216300
2019-08-14,1565740800,116.88,117.58,115.89,115.98,375800
2019-08-15,1565827200,116.14,117.11,114.87,115.24,238400
2019-08-16,1565913600,115.81,117.59,114.87,117.11,197800
2019-08-19,1566172800,118.04,118.31,116.87,117.08,206400
2019-08-20,1566259200,116.97,116.97,115.37,115.78,141800
2019-08-21,1566345600,116.54,116.7,115.79,116.22,298500
2019-08-22,1566432000,116.7,117.57,115.93,117.39,227100
2019-08-23,1566518400,117.4,118.16,116.76,117.12,296100
2019-08-26,1566777600,117.57,118.07,116.78,117.83,237100
2019-08-27,1566864000,118.31,118.65,117.66,118.33,183000
2019-08-28,1566950400,118.32,118.95,117.48,118.68,221100
2019-08-29,1567036800,119.67,120.22,117.99,118.51,184600
2019-08-30,1567123200,119.19,120.1,118.07,119.03,183700
2019-09-03,1567468800,117.66,117.92,115.48,116.53,262000
2019-09-04,1567555200,117.58,118.87,117.05,118.76,160800
2019-09-05,1567641600,119.78,120.0,117.82,118.04,230100
2019-09-06,1567728000,117.8,118.66,117.18,117.73,239300
2019-09-09,1567987200,118.4,118.4,115.67,115.99,232900
2019-09-10,1568073600,115.88,116.21,113.09,116.0,258200
2019-09-11,1568160000,115.8,116.41,113.67,115.53,231700
2019-09-12,1568246400,115.97,116.58,114.9,114.97,163300
2019-09-13,1568332800,115.46,115.87,114.59,115.31,269900
2019-09-16,1568592000,114.65,114.65,112.85,113.44,192100
2019-09-17,1568678400,113.17,114.78,113.04,113.96,216700
2019-09-18,1568764800,113.84,115.85,113.52,115.21,253400
2019-09-19,1568851200,115.24,115.85,114.57,114.78,304200
2019-09-20,1568937600,115.06,115.91,114.49,114.97,527900
2019-09-23,1569196800,114.54,115.87,114.54,115.02,164300
2019-09-24,1569283200,115.51,116.37,115.16,115.42,187100
2019-09-25,1569369600,115.61,116.32,115.57,116.01,202100
2019-09-26,1569456000,116.45,116.56,115.43,115.82,117900
2019-09-27,1569542400,116.1,116.2,114.98,115.57,149100
2019-09-30,1569801600,115.85,116.29,114.77,115.36,219700
2019-10-01,1569888000,116.18,116.61,114.43,114.6,143300
2019-10-02,1569974400,113.95,113.97,112.06,112.34,225600
2019-10-03,1570060800,112.0,112.22,110.81,111.99,241100
2019-10-04,1570147200,112.3,114.55,112.09,114.27,162400
2019-10-07,1570406400,113.65,114.39,113.21,113.52,216100
2019-10-08,1570492800,112.98,114.69,111.52,111.79,221900
2019-10-09,1570579200,112.8,113.84,112.37,113.44,134700
2019-10-10,1570665600,113.44,114.18,112.71,113.28,102400
2019-10-11,1570752000,113.87,114.92,113.21,113.29,213700
2019-10-14,1571011200,113.29,113.83,112.72,112.83,131900
2019-10-15,1571097600,113.3,113.6,112.05,112.17,182500
2019-10-16,1571184000,112.14,112.58,111.42,112.46,213700
2019-10-17,1571270400,112.55,114.03,112.49,113.51,153800
2019-10-18,1571356800,113.38,114.92,113.38,114.71,219100
2019-10-21,1571616000,115.28,116.0,114.73,114.82,142900
2019-10-22,1571702400,114.95,114.97,113.58,113.62,85400
2019-10-23,1571788800,113.49,114.85,113.46,114.31,104800
2019-10-24,1571875200,114.39,115.05,113.69,114.28,122500
2019-10-25,1571961600,114.15,115.53,114.15,114.8,120300
2019-10-28,1572220800,114.88,115.7,114.77,115.12,134100
2019-10-29,1572307200,114.74,116.38,114.74,115.77,136600
2019-10-30,1572393600,115.84,116.86,115.05,116.49,148200
2019-10-31,1572480000,116.29,116.86,114.9,115.42,316000
2019-11-01,1572566400,111.04,112.89,107.01,108.23,583300
2019-11-04,1572825600,108.44,109.18,105.9,106.16,553700
2019-11-05,1572912000,106.69,107.7,105.92,106.15,385300
2019-11-06,1572998400,106.16,107.27,105.91,106.96,369800
2019-11-07,1573084800,107.0,107.98,106.39,106.87,189400
2019-11-08,1573171200,106.78,108.37,106.35,106.48,303500
2019-11-11,1573430400,105.97,107.22,105.97,106.07,181500
2019-11-12,1573516800,106.13,106.77,105.66,105.72,185400
2019-11-13,1573603200,105.82,107.53,105.52,107.09,385400
2019-11-14,1573689600,106.95,108.02,106.95,107.92,224000
2019-11-15,1573776000,108.17,108.17,107.16,107.42,307300
2019-11-18,1574035200,107.38,108.39,107.34,107.79,352100
2019-11-19,1574121600,108.17,108.82,107.9,107.95,258700
2019-11-20,1574208000,107.57,109.26,107.57,108.14,961400
2019-11-21,1574294400,108.66,109.46,107.63,108.73,244200
2019-11-22,1574380800,109.07,109.09,107.46,107.57,151700
2019-11-25,1574640000,107.71,108.49,107.62,108.39,264400
2019-11-26,1574726400,108.94,110.05,108.4,109.96,221900
2019-11-27,1574812800,110.38,110.95,110.03,110.22,145500
2019-11-29,1574985600,110.04,110.59,109.35,109.53,89300
2019-12-02,1575244800,109.92,110.11,109.04,109.42,273300
2019-12-03,1575331200,108.93,110.69,108.57,110.1,246400
2019-12-04,1575417600,110.13,110.86,109.16,109.2,284600
2019-12-05,1575504000,109.3,110.06,109.07,109.36,243700
2019-12-06,1575590400,110.18,110.39,109.22,109.49,322100
2019-12-09,1575849600,109.71,110.23,109.11,110.03,255000
2019-12-10,1575936000,109.87,110.22,108.77,109.35,219500
2019-12-11,1576022400,109.38,110.16,109.31,109.97,141100
2019-12-12,1576108800,109.91,111.79,109.91,111.54,407000
2019-12-13,1576195200,111.35,112.72,110.71,111.34,380400
2019-12-16,1576454400,111.81,112.06,110.68,111.68,194200
2019-12-17,1576540800,111.49,112.1,110.45,110.73,248900
2019-12-18,1576627200,110.73,110.75,109.76,110.47,204000
2019-12-19,1576713600,110.54,110.86,110.19,110.64,172100
2019-12-20,1576800000,111.09,112.48,111.09,112.3,473500
2019-12-23,1577059200,112.27,112.7,111.59,112.7,144300
2019-12-24,1577145600,112.64,112.97,112.03,112.08,63800
2019-12-26,1577318400,112.09,112.2,111.17,112.17,110900
2019-12-27,1577404800,112.56,112.68,111.51,112.36,87800
2019-12-30,1577664000,112.28,113.12,112.02,113.08,193000
2019-12-31,1577750400,113.05,113.51,112.36,112.95,310700
2020-01-02,1577923200,112.83,113.79,110.32,111.05,362700
2020-01-03,1578009600,110.2,112.19,110.2,111.4,221500
2020-01-06,1578268800,111.03,111.84,110.93,111.41,282400
2020-01-07,1578355200,110.93,111.37,110.13,110.3,234700
2020-01-08,1578441600,110.47,111.54,110.47,110.6,331000
2020-01-09,1578528000,111.14,112.4,110.7,112.01,329100
2020-01-10,1578614400,112.01,113.48,111.92,113.11,196800
2020-01-13,1578873600,112.82,113.87,112.7,113.51,248500
2020-01-14,1578960000,113.56,113.63,112.48,113.45,160800
2020-01-15,1579046400,113.63,114.52,113.22,114.01,241500
2020-01-16,1579132800,114.5,115.54,114.47,115.49,187300
2020-01-17,1579219200,115.58,115.87,114.35,114.61,190600
2020-01-21,1579564800,113.96,114.07,112.68,112.96,189300
2020-01-22,1579651200,113.02,113.74,112.81,113.0,141800
2020-01-23,1579737600,112.66,116.27,112.12,114.66,301000
2020-01-24,1579824000,114.69,115.43,113.92,114.41,213000
2020-01-27,1580083200,112.87,114.55,112.56,113.8,239100
2020-01-28,1580169600,114.07,114.24,113.25,113.64,178600
2020-01-29,1580256000,113.58,114.73,113.21,113.61,211200
2020-01-30,1580342400,112.71,114.66,112.03,114.2,153200
2020-01-31,1580428800,113.58,114.05,112.83,113.19,300700
2020-02-03,1580688000,113.29,115.18,113.19,114.88,271300
2020-02-04,1580774400,115.42,116.11,113.87,114.6,313700
2020-02-05,1580860800,114.79,115.91,114.4,115.5,188100
2020-02-06,1580947200,115.68,116.56,115.1,115.17,247800
2020-02-07,1581033600,114.72,115.32,113.89,114.36,144500
2020-02-10,1581292800,114.08,114.75,113.16,113.47,142600
2020-02-11,1581379200,113.69,114.54,113.08,113.72,197600
2020-02-12,1581465600,113.8,113.88,112.0,112.41,448200
2020-02-13,1581552000,112.28,114.21,111.41,113.87,200400
2020-02-14,1581638400,114.26,115.38,113.84,114.33,216800
2020-02-18,1581984000,114.13,114.29,112.77,112.94,271300
2020-02-19,1582070400,113.05,114.28,112.42,112.7,289200
2020-02-20,1582156800,112.31,113.35,111.46,112.62,378400
2020-02-21,1582243200,109.28,112.35,106.97,109.73,720600
2020-02-24,1582502400,108.28,108.98,106.98,107.02,447900
2020-02-25,1582588800,107.03,107.37,104.57,104.79,641400
2020-02-26,1582675200,101.91,104.42,100.71,102.58,504500
2020-02-27,1582761600,101.32,102.66,99.9,100.34,670500
2020-02-28,1582848000,97.73,100.16,97.32,99.04,690800
2020-03-02,1583107200,99.58,101.68,98.78,101.5,331800
2020-03-03,1583193600,101.71,103.6,100.15,100.7,353300
2020-03-04,1583280000,103.27,105.47,102.34,105.28,294500
2020-03-05,1583366400,103.22,103.67,100.58,101.89,273800
2020-03-06,1583452800,99.57,105.25,99.29,105.14,624000
2020-03-09,1583712000,100.68,102.89,97.48,99.41,597100
2020-03-10,1583798400,101.52,101.9,97.39,101.9,522300
2020-03-11,1583884800,99.63,99.63,95.95,97.09,705800
2020-03-12,1583971200,90.62,94.46,85.74,92.5,843100
2020-03-13,1584057600,96.11,97.44,89.29,94.45,596000
2020-03-16,1584316800,85.64,92.58,85.64,86.11,667400
2020-03-17,1584403200,88.14,95.0,87.68,94.51,595700
2020-03-18,1584489600,89.85,95.03,88.53,94.81,762000
2020-03-19,1584576000,94.55,99.19,91.71,96.89,354700
2020-03-20,1584662400,96.83,97.97,87.34,90.65,727300
2020-03-23,1584921600,90.21,91.37,78.24,82.24,698800
2020-03-24,1585008000,85.52,86.55,81.03,86.29,535600
2020-03-25,1585094400,87.21,91.78,84.49,88.37,576200
2020-03-26,1585180800,89.03,95.38,88.41,94.27,447000
2020-03-27,1585267200,92.64,93.91,90.25,92.11,482000
2020-03-30,1585526400,93.06,98.93,92.47,98.46,435400
2020-03-31,1585612800,98.5,100.69,95.48,97.54,531000
2020-04-01,1585699200,95.75,96.7,93.52,94.28,296500
2020-04-02,1585785600,93.89,95.19,92.23,94.22,455700
2020-04-03,1585872000,92.97,95.46,91.48,92.3,370300
2020-04-06,1586131200,95.12,99.15,95.12,98.74,503200
2020-04-07,1586217600,101.47,101.47,97.23,99.09,378000
2020-04-08,1586304000,100.59,103.17,98.62,102.02,328500
2020-04-09,1586390400,102.93,105.86,102.14,105.12,399300
2020-04-13,1586736000,104.84,105.27,100.25,100.29,234000
2020-04-14,1586822400,102.46,103.25,101.28,101.93,239700
2020-04-15,1586908800,100.23,102.1,98.59,98.9,441400
2020-04-16,1586995200,100.96,100.96,97.68,99.8,294000
2020-04-17,1587081600,101.77,102.91,100.34,100.87,256200
2020-04-20,1587340800,99.81,105.77,99.1,104.79,856400
2020-04-21,1587427200,103.72,104.84,102.03,103.99,475500
2020-04-22,1587513600,104.84,104.89,102.03,104.16,436400
2020-04-23,1587600000,104.48,105.16,102.84,102.91,347600
2020-04-24,1587686400,103.29,103.29,101.02,102.03,377000
2020-04-27,1587945600,107.13,111.81,104.73,110.32,457700
2020-04-28,1588032000,110.69,112.72,109.11,109.3,274600
2020-04-29,1588118400,110.65,111.7,107.96,108.21,236600
2020-04-30,1588204800,107.14,108.2,104.54,105.27,730600
2020-05-01,1588291200,108.69,108.69,102.94,104.34,506200
2020-05-04,1588550400,103.74,105.51,103.3,105.0,324300
2020-05-05,1588636800,104.97,105.81,103.61,103.77,332500
2020-05-06,1588723200,104.96,105.24,102.98,103.08,234000
2020-05-07,1588809600,103.73,105.08,103.36,103.68,285200
2020-05-08,1588896000,105.17,106.16,104.75,105.71,257000
2020-05-11,1589155200,104.85,105.69,104.28,104.51,344000
2020-05-12,1589241600,104.63,104.63,102.09,102.19,233300
2020-05-13,1589328000,101.64,101.64,99.93,100.68,267100
2020-05-14,1589414400,99.3,100.88,97.43,100.72,246200
2020-05-15,1589500800,99.75,99.98,98.35,99.78,476400
2020-05-18,1589760000,102.31,103.37,101.21,102.39,304500
2020-05-19,1589846400,102.03,103.96,101.41,101.97,214700
2020-05-20,1589932800,102.68,103.73,102.32,102.64,146200
2020-05-21,1590019200,102.67,103.92,102.67,103.31,233900
2020-05-22,1590105600,103.19,103.47,101.95,103.32,151200
2020-05-26,1590451200,105.52,108.32,104.97,107.69,332200
2020-05-27,1590537600,109.19,110.74,108.48,110.64,290400
2020-05-28,1590624000,111.41,111.41,109.06,109.71,233600
2020-05-29,1590710400,109.22,109.64,107.85,109.5,215300
2020-06-01,1590969600,109.39,109.98,108.73,109.53,277000
2020-06-02,1591056000,109.86,110.56,109.06,110.17,224900
2020-06-03,1591142400,110.79,112.17,110.79,111.36,196600
2020-06-04,1591228800,111.58,111.58,109.14,110.24,182500
2020-06-05,1591315200,111.87,112.34,111.0,111.48,235500
2020-06-08,1591574400,110.91,112.07,110.39,111.66,244700
2020-06-09,1591660800,110.87,111.53,110.01,110.56,292100
2020-06-10,1591747200,111.09,111.09,108.94,109.75,366600
2020-06-11,1591833600,108.14,108.74,102.44,102.48,376900
2020-06-12,1591920000,104.88,105.71,101.33,103.57,247300
2020-06-15,1592179200,101.69,104.73,101.32,103.62,235900
2020-06-16,1592265600,106.46,107.24,105.05,105.57,252600
2020-06-17,1592352000,106.36,106.81,104.57,105.1,208800
2020-06-18,1592438400,104.48,106.14,104.17,105.18,217800
2020-06-19,1592524800,105.39,106.16,104.3,105.78,303700
2020-06-22,1592784000,105.13,105.85,103.71,105.73,241900
2020-06-23,1592870400,106.62,106.62,105.11,105.62,228300
2020-06-24,1592956800,104.77,105.7,104.06,104.14,433900
2020-06-25,1593043200,103.62,105.81,102.02,105.78,263600
2020-06-26,1593129600,105.3,106.85,104.37,105.89,924200
2020-06-29,1593388800,106.41,108.32,106.06,107.4,189300
2020-06-30,1593475200,107.28,110.38,107.28,110.08,421800
2020-07-01,1593561600,110.01,110.76,109.07,110.57,247900
2020-07-02,1593648000,111.52,113.06,111.52,113.02,271400
2020-07-06,1593993600,114.02,114.68,112.25,113.31,330900
2020-07-07,1594080000,112.7,114.03,112.25,113.2,346500
2020-07-08,1594166400,112.85,113.79,110.68,111.02,205900
2020-07-09,1594252800,111.24,112.21,109.52,111.83,307200
2020-07-10,1594339200,112.24,113.22,110.5,113.0,244500
2020-07-13,1594598400,113.01,114.3,111.35,111.51,289000
2020-07-14,1594684800,111.83,114.53,111.76,114.34,193600
2020-07-15,1594771200,115.45,116.29,114.57,115.9,326900
2020-07-16,1594857600,116.04,116.48,114.82,115.25,252900
2020-07-17,1594944000,116.0,117.68,115.35,117.38,249000
2020-07-20,1595203200,117.38,117.72,116.27,117.27,183200
2020-07-21,1595289600,117.55,117.84,115.68,116.18,394300
2020-07-22,1595376000,116.25,116.96,115.42,116.49,414600
2020-07-23,1595462400,116.38,117.21,116.09,116.43,286700
2020-07-24,1595548800,116.98,117.76,116.37,116.84,244700
2020-07-27,1595808000,116.82,118.41,116.49,117.82,281800
2020-07-28,1595894400,118.13,118.13,116.13,116.4,208600
2020-07-29,1595980800,117.06,117.74,115.69,117.15,251200
2020-07-30,1596067200,116.1,117.25,115.07,116.26,359800
2020-07-31,1596153600,113.39,116.25,109.66,113.59,668100
2020-08-03,1596412800,115.22,118.01,113.24,117.0,292900
2020-08-04,1596499200,117.29,118.5,116.57,116.96,233100
2020-08-05,1596585600,117.89,118.98,116.57,116.71,164700
2020-08-06,1596672000,117.16,118.43,115.05,116.01,246500
2020-08-07,1596758400,115.43,117.7,115.15,117.58,202300
2020-08-10,1597017600,117.91,117.91,115.27,115.36,204700
2020-08-11,1597104000,116.37,117.68,114.9,115.11,214100
2020-08-12,1597190400,115.29,116.91,115.12,116.44,171800
2020-08-13,1597276800,115.6,117.8,115.6,116.86,213800
2020-08-14,1597363200,116.23,117.97,116.05,116.83,134600
2020-08-17,1597622400,117.47,118.24,116.36,116.6,160500
2020-08-18,1597708800,116.26,116.98,115.14,116.23,171500
2020-08-19,1597795200,117.04,117.7,115.68,116.04,145600
2020-08-20,1597881600,115.42,116.48,114.97,115.91,159400
2020-08-21,1597968000,115.48,116.7,114.77,116.15,199200
2020-08-24,1598227200,116.55,118.09,116.55,117.44,224000
2020-08-25,1598313600,117.87,117.87,116.28,116.48,114400
2020-08-26,1598400000,116.34,117.34,115.92,116.94,120000
2020-08-27,1598486400,116.97,118.93,116.84,118.37,209800
2020-08-28,1598572800,118.03,118.03,116.35,116.48,295200
2020-08-31,1598832000,116.92,117.49,116.13,116.73,182500
2020-09-01,1598918400,116.29,117.97,116.29,117.83,133900
2020-09-02,1599004800,118.08,120.73,117.31,120.55,153800
2020-09-03,1599091200,120.57,120.57,116.84,117.5,227200
2020-09-04,1599177600,118.36,118.62,114.86,117.06,224200
2020-09-08,1599523200,116.48,116.48,114.42,114.44,164600
2020-09-09,1599609600,115.01,116.97,115.01,116.24,154000
2020-09-10,1599696000,116.52,117.25,115.08,115.55,253500
2020-09-11,1599782400,116.23,117.05,115.49,116.71,124600
2020-09-14,1600041600,117.7,118.38,116.81,117.42,129000
2020-09-15,1600128000,117.77,118.12,116.47,116.68,125600
2020-09-16,1600214400,117.91,117.91,115.93,116.12,232000
2020-09-17,1600300800,114.87,115.6,113.47,114.34,354500
2020-09-18,1600387200,114.95,115.12,112.63,113.43,555700
2020-09-21,1600646400,112.01,112.45,110.26,111.86,251500
2020-09-22,1600732800,112.38,113.07,111.97,112.73,292400
2020-09-23,1600819200,112.6,112.93,110.15,110.57,172300
2020-09-24,1600905600,110.34,111.59,109.61,110.69,274300
2020-09-25,1600992000,109.9,111.01,109.9,110.53,254100
2020-09-28,1601251200,111.59,112.62,110.47,110.79,230000
2020-09-29,1601337600,110.49,111.77,110.19,111.05,230000
2020-09-30,1601424000,111.69,112.47,110.93,111.62,200500
2020-10-01,1601510400,111.86,113.36,111.56,112.11,166000
2020-10-02,1601596800,110.74,112.58,110.74,111.27,166800
2020-10-05,1601856000,111.78,113.32,111.63,112.95,151300
2020-10-06,1601942400,113.4,114.28,112.33,112.96,224000
2020-10-07,1602028800,113.48,114.55,112.9,113.37,173200
2020-10-08,1602115200,114.18,115.16,113.9,114.89,138000
2020-10-09,1602201600,116.47,116.73,114.57,115.18,148700
2020-10-12,1602460800,115.41,117.17,115.07,116.39,138100
2020-10-13,1602547200,116.08,117.25,115.61,115.92,159000
2020-10-14,1602633600,115.86,116.38,114.42,114.81,98900
2020-10-15,1602720000,113.12,114.96,112.62,114.71,116900
2020-10-16,1602806400,115.08,115.59,114.57,114.72,97700
2020-10-19,1603065600,115.01,115.01,112.98,113.54,113700
2020-10-20,1603152000,114.43,115.92,113.61,115.32,192600
2020-10-21,1603238400,115.63,117.1,115.63,116.09,133700
2020-10-22,1603324800,116.24,116.82,115.12,116.66,164100
2020-10-23,1603411200,117.09,117.31,115.84,116.7,105600
2020-10-26,1603670400,115.71,115.85,114.31,115.82,114100
2020-10-27,1603756800,115.89,115.91,114.34,114.38,125000
2020-10-28,1603843200,112.86,113.35,111.02,111.11,170500
2020-10-29,1603929600,111.07,111.86,109.13,111.7,279100
2020-10-30,1604016000,114.98,115.48,112.3,112.84,377900
2020-11-02,1604275200,113.91,116.99,113.41,116.9,215600
2020-11-03,1604361600,117.2,120.13,117.03,118.25,242400
2020-11-04,1604448000,118.69,118.71,116.81,117.75,150600
2020-11-05,1604534400,119.29,121.75,119.11,121.56,185500
2020-11-06,1604620800,122.24,123.25,121.13,122.25,220300
2020-11-09,1604880000,126.22,127.45,120.77,121.82,336500
2020-11-10,1604966400,122.04,127.39,121.6,126.21,326100
2020-11-11,1605052800,126.35,126.35,123.01,123.9,194700
2020-11-12,1605139200,122.88,123.84,121.25,122.91,126300
2020-11-13,1605225600,123.48,124.62,122.74,123.7,126300
2020-11-16,1605484800,124.9,125.61,124.19,125.47,207400
2020-11-17,1605571200,124.88,126.7,124.32,125.97,191200
2020-11-18,1605657600,126.03,126.46,124.59,124.99,173100
2020-11-19,1605744000,125.31,126.22,124.62,125.84,213900
2020-11-20,1605830400,126.11,126.95,125.8,126.41,237300
2020-11-23,1606089600,126.66,127.71,125.02,125.47,182300
2020-11-24,1606176000,126.76,127.06,125.49,126.48,237200
2020-11-25,1606262400,127.07,127.07,124.39,124.91,136100
2020-11-27,1606435200,125.16,125.91,124.7,125.85,67800
2020-11-30,1606694400,125.4,125.54,124.31,124.94,204600
2020-12-01,1606780800,125.76,127.17,125.04,126.42,165800
2020-12-02,1606867200,125.97,126.65,124.34,124.88,133800
2020-12-03,1606953600,124.69,125.72,123.78,124.49,138700
2020-12-04,1607040000,124.11,126.4,124.11,126.28,144600
2020-12-07,1607299200,126.59,127.58,126.24,127.22,115000
2020-12-08,1607385600,126.89,129.47,126.54,127.78,162100
2020-12-09,1607472000,127.72,128.75,127.25,128.11,144800
2020-12-10,1607558400,128.05,129.65,127.61,129.04,247100
2020-12-11,1607644800,128.17,129.66,128.17,129.02,165800
2020-12-14,1607904000,129.61,130.54,126.8,127.0,205800
2020-12-15,1607990400,127.15,129.22,126.9,128.83,158200
2020-12-16,1608076800,129.56,130.3,128.77,129.66,265400
2020-12-17,1608163200,129.85,132.23,129.57,131.68,297700
2020-12-18,1608249600,132.53,133.2,132.18,132.63,656300
2020-12-21,1608508800,131.33,133.52,130.06,133.41,211700
2020-12-22,1608595200,133.18,134.73,132.54,133.03,257300
2020-12-23,1608681600,133.05,134.26,132.98,133.06,191600
2020-12-24,1608768000,133.52,134.88,133.18,134.21,84200
2020-12-28,1609113600,134.7,135.64,133.58,134.19,100400
2020-12-29,1609200000,134.78,135.25,133.36,133.83,94400
2020-12-30,1609286400,134.42,135.86,133.98,134.9,99000
2020-12-31,1609372800,135.27,135.82,134.12,135.39,169800
